,Date,High,Low,Open,Close,Volume,Adj Close
0,16/02/2017,22400,22400,22400.0,22400,1200,14000
1,17/02/2017,20000,20000,20000.0,20000,800,12500
2,20/02/2017,20000,20000,20000.0,20000,1000,12500
3,21/02/2017,20000,20000,-,20000,-,12500
4,22/02/2017,20000,20000,-,20000,-,12500
5,23/02/2017,20000,20000,-,20000,-,12500
6,24/02/2017,18500,18500,18500.0,18500,100,11600
7,27/02/2017,18500,18500,-,18500,-,11600
8,28/02/2017,18500,18500,-,18500,-,11600
9,01/03/2017,18500,18500,-,18500,-,11600
10,02/03/2017,18500,18500,-,18500,-,11600
11,03/03/2017,18500,18500,-,18500,-,11600
12,06/03/2017,15800,15800,15800.0,15800,100,9900
13,07/03/2017,15800,15800,-,15800,-,9900
14,08/03/2017,15800,15800,-,15800,-,9900
15,09/03/2017,15800,15800,-,15800,-,9900
16,10/03/2017,15800,15800,-,15800,-,9900
17,13/03/2017,15800,15800,-,15800,-,9900
18,14/03/2017,15800,15800,-,15800,-,9900
19,15/03/2017,15800,15800,-,15800,-,9900
20,16/03/2017,15800,15800,-,15800,-,9900
21,17/03/2017,15800,15800,-,15800,-,9900
22,20/03/2017,15800,15800,-,15800,-,9900
23,21/03/2017,15800,15800,-,15800,-,9900
24,22/03/2017,15800,15800,-,15800,-,9900
25,23/03/2017,15800,15800,-,15800,-,9900
26,24/03/2017,15800,15800,-,15800,-,9900
27,27/03/2017,15800,15800,-,15800,-,9900
28,28/03/2017,15800,15800,-,15800,-,9900
29,29/03/2017,15800,15800,-,15800,-,9900
30,30/03/2017,15800,15800,-,15800,-,9900
31,31/03/2017,15800,15800,-,15800,-,9900
32,03/04/2017,15800,15800,-,15800,-,9900
33,04/04/2017,15800,15800,-,15800,-,9900
34,05/04/2017,15800,15800,-,15800,-,9900
35,07/04/2017,15800,15800,-,15800,-,9900
36,10/04/2017,15800,15800,-,15800,-,9900
37,11/04/2017,15800,15800,-,15800,-,9900
38,12/04/2017,15800,15800,-,15800,-,9900
39,13/04/2017,15800,15800,-,15800,-,9900
40,14/04/2017,15800,15800,-,15800,-,9900
41,17/04/2017,15800,15800,-,15800,-,9900
42,18/04/2017,15800,15800,-,15800,-,9900
43,19/04/2017,15800,15800,-,15800,-,9900
44,20/04/2017,15800,15800,-,15800,-,9900
45,21/04/2017,15800,15800,-,15800,-,9900
46,24/04/2017,15800,15800,-,15800,-,9900
47,25/04/2017,15800,15800,-,15800,-,9900
48,26/04/2017,15800,15800,-,15800,-,9900
49,27/04/2017,15800,15800,-,15800,-,9900
50,28/04/2017,15800,15800,-,15800,-,9900
51,03/05/2017,15800,15800,-,15800,-,9900
52,04/05/2017,15800,15800,-,15800,-,9900
53,05/05/2017,15800,15800,-,15800,-,9900
54,08/05/2017,15800,15800,-,15800,-,9900
55,09/05/2017,15800,15800,-,15800,-,9900
56,10/05/2017,15800,15800,-,15800,-,9900
57,11/05/2017,15800,15800,-,15800,-,9900
58,12/05/2017,15800,15800,-,15800,-,9900
59,15/05/2017,15800,15800,-,15800,-,9900
60,16/05/2017,15800,15800,-,15800,-,9900
61,17/05/2017,15800,15800,-,15800,-,9900
62,18/05/2017,15800,15800,-,15800,-,9900
63,19/05/2017,15800,15800,-,15800,-,9900
64,22/05/2017,15800,15800,-,15800,-,9900
65,23/05/2017,15800,15800,-,15800,-,9900
66,24/05/2017,15800,15800,-,15800,-,9900
67,25/05/2017,15800,15800,-,15800,-,9900
68,26/05/2017,15800,15800,-,15800,-,9900
69,29/05/2017,17100,17100,17100.0,17100,3000,10700
70,30/05/2017,17100,17100,-,17100,-,10700
71,31/05/2017,17100,17100,-,17100,-,10700
72,01/06/2017,17100,17100,-,17100,-,10700
73,02/06/2017,17100,17100,-,17100,-,10700
74,05/06/2017,17100,17100,-,17100,-,10700
75,06/06/2017,17100,17100,-,17100,-,10700
76,07/06/2017,17100,17100,-,17100,-,10700
77,08/06/2017,17100,17100,-,17100,-,10700
78,09/06/2017,17100,17100,-,17100,-,10700
79,12/06/2017,17100,17100,-,17100,-,10700
80,13/06/2017,17100,17100,-,17100,-,10700
81,14/06/2017,17100,17100,-,17100,-,10700
82,15/06/2017,17100,17100,-,17100,-,10700
83,16/06/2017,17100,17100,-,17100,-,10700
84,19/06/2017,17100,17100,-,17100,-,10700
85,20/06/2017,17100,17100,-,17100,-,10700
86,21/06/2017,17100,17100,-,17100,-,10700
87,22/06/2017,17100,17100,-,17100,-,10700
88,23/06/2017,17100,17100,-,17100,-,10700
89,26/06/2017,17100,17100,-,17100,-,10700
90,27/06/2017,17100,17100,-,17100,-,10700
91,28/06/2017,17100,17100,-,17100,-,10700
92,29/06/2017,17100,17100,-,17100,-,10700
93,30/06/2017,17100,17100,-,17100,-,10700
94,03/07/2017,17100,17100,-,17100,-,10700
95,04/07/2017,17100,17100,-,17100,-,10700
96,05/07/2017,17100,17100,-,17100,-,10700
97,06/07/2017,17100,17100,-,17100,-,10700
98,07/07/2017,17100,17100,-,17100,-,10700
99,10/07/2017,17100,17100,-,17100,-,10700
100,11/07/2017,17100,17100,-,17100,-,10700
101,12/07/2017,17100,17100,-,17100,-,10700
102,13/07/2017,17100,17100,-,17100,-,10700
103,14/07/2017,17100,17100,-,17100,-,10700
104,17/07/2017,17100,17100,-,17100,-,10700
105,18/07/2017,17100,17100,-,17100,-,10700
106,19/07/2017,17100,17100,-,17100,-,10700
107,20/07/2017,17100,17100,-,17100,-,10700
108,21/07/2017,17100,17100,-,17100,-,10700
109,24/07/2017,17100,17100,-,17100,-,10700
110,25/07/2017,17100,17100,-,17100,-,10700
111,26/07/2017,16400,16400,-,16400,-,10700
112,27/07/2017,16400,16400,-,16400,-,10700
113,28/07/2017,16400,16400,-,16400,-,10700
114,31/07/2017,16400,16400,-,16400,-,10700
115,01/08/2017,16400,16400,-,16400,-,10700
116,02/08/2017,16400,16400,-,16400,-,10700
117,03/08/2017,16400,16400,-,16400,-,10700
118,04/08/2017,16400,16400,-,16400,-,10700
119,07/08/2017,16400,16400,-,16400,-,10700
120,08/08/2017,16400,16400,-,16400,-,10700
121,09/08/2017,16400,16400,-,16400,-,10700
122,10/08/2017,16400,16400,-,16400,-,10700
123,11/08/2017,16400,16400,-,16400,-,10700
124,14/08/2017,16400,16400,-,16400,-,10700
125,15/08/2017,16400,16400,-,16400,-,10700
126,16/08/2017,16400,16400,-,16400,-,10700
127,17/08/2017,16400,16400,-,16400,-,10700
128,18/08/2017,16400,16400,-,16400,-,10700
129,21/08/2017,16400,16400,-,16400,-,10700
130,22/08/2017,16400,16400,-,16400,-,10700
131,23/08/2017,16400,16400,-,16400,-,10700
132,24/08/2017,16400,16400,-,16400,-,10700
133,25/08/2017,16400,16400,-,16400,-,10700
134,28/08/2017,16400,16400,-,16400,-,10700
135,29/08/2017,16400,16400,-,16400,-,10700
136,30/08/2017,16400,16400,-,16400,-,10700
137,31/08/2017,16400,16400,-,16400,-,10700
138,01/09/2017,16400,16400,-,16400,-,10700
139,05/09/2017,16400,16400,-,16400,-,10700
140,06/09/2017,16400,16400,-,16400,-,10700
141,07/09/2017,16400,16400,-,16400,-,10700
142,08/09/2017,16400,16400,-,16400,-,10700
143,11/09/2017,16400,16400,-,16400,-,10700
144,12/09/2017,16400,16400,-,16400,-,10700
145,13/09/2017,16400,16400,-,16400,-,10700
146,14/09/2017,16400,16400,-,16400,-,10700
147,15/09/2017,16400,16400,-,16400,-,10700
148,18/09/2017,16400,16400,-,16400,-,10700
149,19/09/2017,16400,16400,-,16400,-,10700
150,20/09/2017,16400,16400,-,16400,-,10700
151,21/09/2017,16400,16400,-,16400,-,10700
152,22/09/2017,16400,16400,-,16400,-,10700
153,25/09/2017,16400,16400,-,16400,-,10700
154,26/09/2017,16400,16400,-,16400,-,10700
155,27/09/2017,16400,16400,-,16400,-,10700
156,28/09/2017,16400,16400,-,16400,-,10700
157,29/09/2017,16400,16400,-,16400,-,10700
158,02/10/2017,16400,16400,-,16400,-,10700
159,03/10/2017,16400,16400,-,16400,-,10700
160,04/10/2017,16400,16400,-,16400,-,10700
161,05/10/2017,16400,16400,-,16400,-,10700
162,06/10/2017,16400,16400,-,16400,-,10700
163,09/10/2017,16400,16400,-,16400,-,10700
164,10/10/2017,16400,16400,-,16400,-,10700
165,11/10/2017,16400,16400,-,16400,-,10700
166,12/10/2017,16400,16400,-,16400,-,10700
167,13/10/2017,16400,16400,-,16400,-,10700
168,16/10/2017,16400,16400,16400.0,16400,-,10700
169,17/10/2017,16400,16400,-,16400,-,10700
170,18/10/2017,16400,16400,-,16400,-,10700
171,19/10/2017,16400,16400,-,16400,-,10700
172,20/10/2017,16400,16400,-,16400,-,10700
173,23/10/2017,16400,16400,-,16400,-,10700
174,24/10/2017,16400,16400,-,16400,-,10700
175,25/10/2017,16400,16400,-,16400,-,10700
176,26/10/2017,16400,16400,-,16400,-,10700
177,27/10/2017,16400,16400,-,16400,-,10700
178,30/10/2017,16400,16400,-,16400,-,10700
179,31/10/2017,16400,16400,-,16400,-,10700
180,01/11/2017,16400,16400,-,16400,-,10700
181,02/11/2017,16400,16400,-,16400,-,10700
182,03/11/2017,16400,16400,-,16400,-,10700
183,06/11/2017,16400,16400,-,16400,-,10700
184,07/11/2017,16400,16400,-,16400,-,10700
185,08/11/2017,16400,16400,-,16400,-,10700
186,09/11/2017,16400,16400,-,16400,-,10700
187,10/11/2017,16400,16400,-,16400,-,10700
188,13/11/2017,16400,16400,-,16400,-,10700
189,14/11/2017,16400,16400,-,16400,-,10700
190,15/11/2017,16400,16400,-,16400,-,10700
191,16/11/2017,16400,16400,-,16400,-,10700
192,17/11/2017,16400,16400,-,16400,-,10700
193,20/11/2017,16400,16400,-,16400,-,10700
194,21/11/2017,16400,16400,-,16400,-,10700
195,22/11/2017,16400,16400,-,16400,-,10700
196,23/11/2017,16400,16400,-,16400,-,10700
197,24/11/2017,16400,16400,-,16400,-,10700
198,27/11/2017,16400,16400,-,16400,-,10700
199,28/11/2017,16400,16400,-,16400,-,10700
200,29/11/2017,16400,16400,-,16400,-,10700
201,30/11/2017,16400,16400,-,16400,-,10700
202,01/12/2017,16400,16400,-,16400,-,10700
203,04/12/2017,16400,16400,-,16400,-,10700
204,05/12/2017,16400,16400,-,16400,-,10700
205,06/12/2017,16400,16400,-,16400,-,10700
206,07/12/2017,16400,16400,-,16400,-,10700
207,08/12/2017,16400,16400,-,16400,-,10700
208,11/12/2017,16400,16400,-,16400,-,10700
209,12/12/2017,16400,16400,-,16400,-,10700
210,13/12/2017,16400,16400,-,16400,-,10700
211,14/12/2017,16400,16400,-,16400,-,10700
212,15/12/2017,16400,16400,-,16400,-,10700
213,18/12/2017,16400,16400,-,16400,-,10700
214,19/12/2017,16400,16400,-,16400,-,10700
215,20/12/2017,16400,16400,-,16400,-,10700
216,21/12/2017,16400,16400,-,16400,-,10700
217,22/12/2017,16400,16400,-,16400,-,10700
218,25/12/2017,16400,16400,-,16400,-,10700
219,26/12/2017,16400,16400,16400.0,16400,-,10700
220,27/12/2017,16400,16400,-,16400,-,10700
221,28/12/2017,16400,16400,-,16400,-,10700
222,29/12/2017,16400,16400,-,16400,-,10700
223,02/01/2018,16400,16400,-,16400,-,10700
224,03/01/2018,16400,16400,-,16400,-,10700
225,04/01/2018,16400,16400,-,16400,-,10700
226,05/01/2018,16400,16400,-,16400,-,10700
227,08/01/2018,16400,16400,-,16400,-,10700
228,09/01/2018,16400,16400,-,16400,-,10700
229,10/01/2018,16400,16400,-,16400,-,10700
230,11/01/2018,16400,16400,-,16400,-,10700
231,12/01/2018,16400,16400,-,16400,-,10700
232,15/01/2018,16400,16400,-,16400,-,10700
233,16/01/2018,16400,16400,-,16400,-,10700
234,17/01/2018,16400,16400,-,16400,-,10700
235,18/01/2018,16400,16400,-,16400,-,10700
236,19/01/2018,16400,16400,-,16400,-,10700
237,22/01/2018,16400,16400,-,16400,-,10700
238,23/01/2018,16400,16400,-,16400,-,10700
239,24/01/2018,16400,16400,-,16400,-,10700
240,25/01/2018,16400,16400,-,16400,-,10700
241,26/01/2018,16400,16400,16400.0,16400,-,10700
242,29/01/2018,16400,16400,-,16400,-,10700
243,30/01/2018,16400,16400,-,16400,-,10700
244,31/01/2018,16400,16400,-,16400,-,10700
245,01/02/2018,16400,16400,-,16400,-,10700
246,02/02/2018,16400,16400,-,16400,-,10700
247,05/02/2018,16400,16400,-,16400,-,10700
248,06/02/2018,16400,16400,-,16400,-,10700
249,07/02/2018,16400,16400,-,16400,-,10700
250,08/02/2018,16400,16400,16400.0,16400,-,10700
251,09/02/2018,16400,16400,-,16400,-,-
252,12/02/2018,16400,16400,-,16400,-,10700
253,13/02/2018,16400,16400,-,16400,-,-
254,21/02/2018,16400,16400,-,16400,-,-
255,22/02/2018,16400,16400,16400.0,16400,-,10700
256,23/02/2018,16400,16400,-,16400,-,10700
257,26/02/2018,16400,16400,-,16400,-,10700
258,27/02/2018,16400,16400,-,16400,-,10700
259,28/02/2018,16400,16400,-,16400,-,-
260,01/03/2018,16400,16400,-,16400,-,10700
261,02/03/2018,16400,16400,16400.0,16400,-,10700
262,05/03/2018,17800,17800,17800.0,17800,1000,11600
263,06/03/2018,17800,17800,-,17800,-,11600
264,07/03/2018,17800,17800,-,17800,-,11600
265,08/03/2018,17800,17800,-,17800,-,11600
266,09/03/2018,17800,17800,-,17800,-,11600
267,12/03/2018,17800,17800,-,17800,-,11600
268,13/03/2018,17800,17800,-,17800,-,11600
269,14/03/2018,17800,17800,-,17800,12679,11600
270,15/03/2018,17800,17800,-,17800,-,11600
271,16/03/2018,17800,17800,-,17800,-,11600
272,19/03/2018,17800,17800,-,17800,18997,11600
273,20/03/2018,17800,17800,-,17800,-,11600
274,21/03/2018,17800,17800,-,17800,-,11600
275,22/03/2018,17800,17800,-,17800,-,11600
276,23/03/2018,17800,17800,-,17800,-,11600
277,26/03/2018,17800,17800,-,17800,-,11600
278,27/03/2018,17800,17800,-,17800,-,11600
279,28/03/2018,17800,17800,-,17800,-,11600
280,29/03/2018,17800,17800,17800.0,17800,-,11600
281,30/03/2018,17800,17800,-,17800,-,11600
282,02/04/2018,17800,17800,-,17800,2628,11600
283,03/04/2018,17800,17800,-,17800,-,11600
284,04/04/2018,17800,17800,-,17800,-,11600
285,05/04/2018,17800,17800,-,17800,-,11600
286,06/04/2018,17800,17800,-,17800,-,11600
287,09/04/2018,17800,17800,-,17800,-,11600
288,10/04/2018,17800,17800,-,17800,-,11600
289,11/04/2018,17800,17800,-,17800,-,11600
290,12/04/2018,17800,17800,-,17800,-,11600
291,13/04/2018,17800,17800,-,17800,-,11600
292,16/04/2018,17800,17800,-,17800,-,11600
293,17/04/2018,17800,17800,17800.0,17800,-,11600
294,18/04/2018,17800,17800,-,17800,-,11600
295,19/04/2018,17800,17800,-,17800,-,11600
296,20/04/2018,17800,17800,-,17800,-,11600
297,23/04/2018,17800,17800,-,17800,-,11600
298,24/04/2018,17800,17800,-,17800,-,11600
299,26/04/2018,17800,17800,-,17800,-,11600
300,27/04/2018,17800,17800,-,17800,-,11600
301,02/05/2018,17800,17800,-,17800,-,11600
302,03/05/2018,17800,17800,-,17800,-,11600
303,04/05/2018,17800,17800,-,17800,-,11600
304,07/05/2018,17800,17800,-,17800,-,11600
305,08/05/2018,17800,17800,-,17800,-,11600
306,09/05/2018,17800,17800,-,17800,-,11600
307,10/05/2018,17800,17800,-,17800,-,11600
308,11/05/2018,17800,17800,-,17800,-,11600
309,14/05/2018,17800,17800,-,17800,-,11600
310,15/05/2018,17800,17800,-,17800,-,11600
311,16/05/2018,17800,17800,-,17800,-,11600
312,17/05/2018,17800,17800,-,17800,-,11600
313,18/05/2018,17800,17800,-,17800,-,11600
314,21/05/2018,17800,17800,-,17800,-,11600
315,22/05/2018,17800,17800,-,17800,-,11600
316,23/05/2018,17800,17800,-,17800,-,11600
317,24/05/2018,17800,17800,-,17800,-,11600
318,25/05/2018,17800,17800,-,17800,-,11600
319,28/05/2018,17800,17800,-,17800,-,11600
320,29/05/2018,17800,17800,-,17800,-,11600
321,30/05/2018,17800,17800,-,17800,-,11600
322,31/05/2018,17800,17800,-,17800,-,11600
323,01/06/2018,17800,17800,-,17800,-,11600
324,04/06/2018,17800,17800,-,17800,-,11600
325,05/06/2018,17800,17800,-,17800,-,11600
326,06/06/2018,17800,17800,-,17800,-,11600
327,07/06/2018,17800,17800,17800.0,17800,-,11600
328,08/06/2018,17800,17800,-,17800,-,11600
329,11/06/2018,17800,17800,-,17800,-,11600
330,12/06/2018,17800,17800,17800.0,17800,-,11600
331,13/06/2018,17800,17800,-,17800,-,11600
332,14/06/2018,17800,17800,-,17800,-,11600
333,15/06/2018,17800,17800,17800.0,17800,-,11600
334,18/06/2018,17800,17800,17800.0,17800,-,11600
335,19/06/2018,17800,17800,-,17800,-,11600
336,20/06/2018,17800,17800,-,17800,-,11600
337,21/06/2018,17800,17800,-,17800,-,11600
338,22/06/2018,17800,17800,-,17800,-,11600
339,25/06/2018,17800,17800,17800.0,17800,-,11600
340,26/06/2018,17800,17800,-,17800,-,11600
341,27/06/2018,17800,17800,-,17800,-,11600
342,28/06/2018,17800,17800,17800.0,17800,-,11600
343,29/06/2018,17800,17800,-,17800,-,11600
344,02/07/2018,17800,17800,-,17800,-,11600
345,03/07/2018,17800,17800,17800.0,17800,-,11600
346,04/07/2018,17800,17800,-,17800,-,11600
347,05/07/2018,17800,17800,-,17800,-,11600
348,06/07/2018,17800,17800,-,17800,-,11600
349,09/07/2018,17800,17800,-,17800,-,11600
350,10/07/2018,17800,17800,-,17800,-,11600
351,11/07/2018,17800,17800,-,17800,-,11600
352,12/07/2018,17800,17800,17800.0,17800,-,11600
353,13/07/2018,17800,17800,-,17800,-,11600
354,16/07/2018,17800,17800,-,17800,-,11600
355,17/07/2018,17800,17800,-,17800,-,11600
356,18/07/2018,17800,17800,-,17800,-,11600
357,19/07/2018,17800,17800,17800.0,17800,-,11600
358,20/07/2018,17800,17800,-,17800,-,11600
359,23/07/2018,16300,16300,-,16300,-,11600
360,24/07/2018,16300,16300,-,16300,-,11600
361,25/07/2018,16300,16300,-,16300,-,11600
362,26/07/2018,16300,16300,16300.0,16300,-,11600
363,27/07/2018,16300,16300,16300.0,16300,-,11600
364,30/07/2018,16300,16300,-,16300,-,11600
365,31/07/2018,16300,16300,-,16300,-,11600
366,01/08/2018,16300,16300,-,16300,-,11600
367,02/08/2018,16300,16300,-,16300,-,11600
368,03/08/2018,16300,16300,-,16300,-,11600
369,06/08/2018,16300,16300,16300.0,16300,-,11600
370,07/08/2018,16300,16300,-,16300,-,11600
371,08/08/2018,16300,16300,-,16300,-,11600
372,09/08/2018,16300,16300,-,16300,-,11600
373,10/08/2018,16300,16300,-,16300,-,11600
374,13/08/2018,16300,16300,-,16300,-,11600
375,14/08/2018,16300,16300,-,16300,-,11600
376,15/08/2018,16300,16300,-,16300,-,11600
377,16/08/2018,16300,16300,16300.0,16300,-,11600
378,17/08/2018,16300,16300,-,16300,-,11600
379,20/08/2018,16300,16300,-,16300,-,11600
380,21/08/2018,16300,16300,16300.0,16300,-,11600
381,22/08/2018,16300,16300,-,16300,-,11600
382,23/08/2018,16300,16300,-,16300,-,11600
383,24/08/2018,16300,16300,-,16300,-,11600
384,27/08/2018,16300,16300,-,16300,-,11600
385,28/08/2018,16300,16300,-,16300,-,11600
386,29/08/2018,16300,16300,-,16300,-,11600
387,30/08/2018,16300,16300,-,16300,-,11600
388,31/08/2018,16300,16300,-,16300,-,11600
389,04/09/2018,16300,16300,16300.0,16300,-,11600
390,05/09/2018,16300,16300,-,16300,-,11600
391,06/09/2018,16300,16300,-,16300,-,11600
392,07/09/2018,16300,16300,-,16300,-,11600
393,10/09/2018,16300,16300,-,16300,-,11600
394,11/09/2018,16300,16300,-,16300,-,11600
395,12/09/2018,16300,16300,-,16300,-,11600
396,13/09/2018,16300,16300,-,16300,-,11600
397,14/09/2018,16300,16300,-,16300,-,11600
398,17/09/2018,16300,16300,-,16300,-,11600
399,18/09/2018,16300,16300,-,16300,-,11600
400,19/09/2018,16300,16300,-,16300,-,11600
401,20/09/2018,16300,16300,-,16300,-,11600
402,21/09/2018,16300,16300,-,16300,-,11600
403,24/09/2018,16300,16300,-,16300,-,11600
404,25/09/2018,16300,16300,-,16300,-,11600
405,26/09/2018,16300,16300,-,16300,-,11600
406,27/09/2018,16300,16300,-,16300,-,11600
407,28/09/2018,16300,16300,-,16300,-,11600
408,01/10/2018,16300,16300,-,16300,-,11600
409,02/10/2018,16300,16300,-,16300,-,11600
410,03/10/2018,16300,16300,-,16300,-,11600
411,04/10/2018,16300,16300,-,16300,-,11600
412,05/10/2018,16300,16300,-,16300,-,11600
413,08/10/2018,16300,16300,-,16300,-,11600
414,09/10/2018,16300,16300,-,16300,-,11600
415,10/10/2018,16300,16300,-,16300,-,11600
416,11/10/2018,16300,16300,-,16300,-,11600
417,12/10/2018,16300,16300,-,16300,-,11600
418,15/10/2018,16300,16300,-,16300,-,11600
419,16/10/2018,16300,16300,-,16300,-,11600
420,17/10/2018,16300,16300,-,16300,-,11600
421,18/10/2018,16300,16300,-,16300,-,11600
422,19/10/2018,16300,16300,-,16300,-,11600
423,22/10/2018,16300,16300,-,16300,-,11600
424,23/10/2018,16300,16300,-,16300,-,11600
425,24/10/2018,16300,16300,16300.0,16300,-,11600
426,25/10/2018,16300,16300,16300.0,16300,-,11600
427,26/10/2018,16300,16300,16300.0,16300,-,12700
428,29/10/2018,16300,16300,16300.0,16300,-,12700
429,30/10/2018,16300,16300,16300.0,16300,-,12700
430,31/10/2018,16300,16300,16300.0,16300,-,11600
431,01/11/2018,16300,16300,16300.0,16300,-,12700
432,02/11/2018,16300,16300,-,16300,-,11600
433,05/11/2018,16300,16300,16300.0,16300,-,12700
434,06/11/2018,16300,16300,16300.0,16300,-,12700
435,07/11/2018,16300,16300,16300.0,16300,-,12700
436,08/11/2018,16300,16300,16300.0,16300,-,12700
437,09/11/2018,16300,16300,16300.0,16300,-,12700
438,12/11/2018,16300,16300,16300.0,16300,-,12700
439,13/11/2018,16300,16300,16300.0,16300,-,12700
440,14/11/2018,16300,16300,16300.0,16300,-,12700
441,15/11/2018,16300,16300,16300.0,16300,-,12700
442,16/11/2018,16300,16300,16300.0,16300,-,12700
443,19/11/2018,16300,16300,16300.0,16300,-,12700
444,20/11/2018,16300,16300,16300.0,16300,-,12700
445,21/11/2018,22800,22800,22800.0,22800,200,16200
446,22/11/2018,22800,22800,22800.0,22800,-,16200
447,23/11/2018,26200,26200,26200.0,26200,100,18600
448,26/11/2018,26200,26200,26200.0,26200,-,18600
449,27/11/2018,26200,26200,26200.0,26200,-,18600
450,28/11/2018,26200,26200,26200.0,26200,-,18600
451,29/11/2018,26200,26200,26200.0,26200,-,18600
452,30/11/2018,26200,26200,26200.0,26200,-,18600
453,03/12/2018,26200,26200,26200.0,26200,-,18600
454,04/12/2018,26200,26200,26200.0,26200,-,18600
455,05/12/2018,26200,26200,26200.0,26200,-,18600
456,06/12/2018,26200,26200,26200.0,26200,-,18600
457,07/12/2018,26200,26200,26200.0,26200,-,18600
458,10/12/2018,26200,26200,26200.0,26200,-,18600
459,11/12/2018,26200,26200,26200.0,26200,-,18600
460,12/12/2018,26200,26200,26200.0,26200,-,18600
461,13/12/2018,26200,26200,26200.0,26200,-,18600
462,14/12/2018,26200,26200,26200.0,26200,-,18600
463,17/12/2018,26200,26200,26200.0,26200,-,18600
464,18/12/2018,26200,26200,26200.0,26200,-,18600
465,19/12/2018,26200,26200,26200.0,26200,-,18600
466,20/12/2018,26200,26200,26200.0,26200,-,18600
467,21/12/2018,26200,26200,26200.0,26200,-,18600
468,24/12/2018,26200,26200,26200.0,26200,-,18600
469,25/12/2018,26200,26200,26200.0,26200,-,18600
470,26/12/2018,26200,26200,26200.0,26200,-,18600
471,27/12/2018,26200,26200,26200.0,26200,-,18600
472,28/12/2018,26200,26200,26200.0,26200,-,18600
473,02/01/2019,26200,26200,26200.0,26200,-,18600
474,03/01/2019,26200,26200,26200.0,26200,-,18600
475,04/01/2019,26200,26200,26200.0,26200,-,18600
476,07/01/2019,26200,26200,26200.0,26200,-,18600
477,08/01/2019,26200,26200,26200.0,26200,-,18600
478,09/01/2019,26200,26200,26200.0,26200,-,18600
479,10/01/2019,26200,26200,26200.0,26200,-,18600
480,11/01/2019,26200,26200,26200.0,26200,-,18600
481,14/01/2019,26200,26200,26200.0,26200,-,18600
482,15/01/2019,26200,26200,26200.0,26200,-,18600
483,16/01/2019,26200,26200,26200.0,26200,-,18600
484,17/01/2019,26200,26200,26200.0,26200,-,18600
485,18/01/2019,26200,26200,26200.0,26200,-,18600
486,21/01/2019,26200,26200,26200.0,26200,-,18600
487,22/01/2019,26200,26200,26200.0,26200,-,18600
488,23/01/2019,26200,26200,26200.0,26200,-,18600
489,24/01/2019,26200,26200,26200.0,26200,-,18600
490,25/01/2019,26200,26200,26200.0,26200,-,18600
491,28/01/2019,26200,26200,26200.0,26200,-,18600
492,29/01/2019,26200,26200,26200.0,26200,-,18600
493,30/01/2019,26200,26200,26200.0,26200,-,18600
494,31/01/2019,26200,26200,26200.0,26200,-,18600
495,01/02/2019,26200,26200,26200.0,26200,-,18600
496,11/02/2019,26200,26200,26200.0,26200,-,18600
497,12/02/2019,26200,26200,26200.0,26200,-,18600
498,13/02/2019,26200,26200,26200.0,26200,-,18600
499,14/02/2019,26200,26200,26200.0,26200,-,18600
500,15/02/2019,26200,26200,26200.0,26200,-,18600
501,18/02/2019,26200,26200,26200.0,26200,-,18600
502,19/02/2019,26200,26200,26200.0,26200,-,18600
503,20/02/2019,26200,26200,26200.0,26200,-,18600
504,21/02/2019,26200,26200,26200.0,26200,-,18600
505,22/02/2019,26200,26200,26200.0,26200,-,18600
506,25/02/2019,26200,26200,26200.0,26200,-,18600
507,26/02/2019,26200,26200,26200.0,26200,-,18600
508,27/02/2019,26200,26200,26200.0,26200,-,18600
509,28/02/2019,26200,26200,26200.0,26200,-,18600
510,01/03/2019,26200,26200,26200.0,26200,-,18600
511,04/03/2019,26200,26200,26200.0,26200,-,18600
512,05/03/2019,26200,26200,26200.0,26200,-,18600
513,06/03/2019,26200,26200,26200.0,26200,-,18600
514,07/03/2019,26200,26200,26200.0,26200,-,18600
515,08/03/2019,26200,26200,26200.0,26200,-,18600
516,11/03/2019,26200,26200,26200.0,26200,-,18600
517,12/03/2019,26200,26200,26200.0,26200,-,18600
518,13/03/2019,26200,26200,26200.0,26200,-,18600
519,14/03/2019,26200,26200,26200.0,26200,-,18600
520,15/03/2019,26200,26200,26200.0,26200,-,18600
521,18/03/2019,26200,26200,26200.0,26200,-,18600
522,19/03/2019,26200,26200,26200.0,26200,-,18600
523,20/03/2019,26200,26200,26200.0,26200,-,18600
524,21/03/2019,26200,26200,26200.0,26200,-,18600
525,22/03/2019,26200,26200,26200.0,26200,-,18600
526,25/03/2019,26200,26200,26200.0,26200,-,18600
527,26/03/2019,26200,26200,26200.0,26200,-,18600
528,27/03/2019,26200,26200,26200.0,26200,-,18600
529,28/03/2019,26200,26200,26200.0,26200,-,18600
530,29/03/2019,26200,26200,26200.0,26200,-,18600
531,01/04/2019,26200,26200,26200.0,26200,-,18600
532,02/04/2019,26200,26200,26200.0,26200,-,18600
533,03/04/2019,26200,26200,26200.0,26200,-,18600
534,04/04/2019,26200,26200,26200.0,26200,-,18600
535,05/04/2019,26200,26200,26200.0,26200,-,18600
536,08/04/2019,26200,26200,26200.0,26200,-,18600
537,09/04/2019,26200,26200,26200.0,26200,-,18600
538,10/04/2019,26200,26200,26200.0,26200,-,18600
539,11/04/2019,26200,26200,26200.0,26200,-,18600
540,12/04/2019,26200,26200,26200.0,26200,-,18600
541,16/04/2019,26200,26200,26200.0,26200,-,18600
542,17/04/2019,26200,26200,26200.0,26200,-,18600
543,18/04/2019,26200,26200,26200.0,26200,-,18600
544,19/04/2019,26200,26200,26200.0,26200,-,18600
545,22/04/2019,26200,26200,26200.0,26200,-,18600
546,23/04/2019,26200,26200,26200.0,26200,-,18600
547,24/04/2019,26200,26200,26200.0,26200,-,18600
548,25/04/2019,26200,26200,26200.0,26200,-,18600
549,26/04/2019,26200,26200,26200.0,26200,-,18600
550,02/05/2019,26200,26200,26200.0,26200,-,18600
551,03/05/2019,26200,26200,26200.0,26200,-,18600
552,06/05/2019,26200,26200,26200.0,26200,-,18600
553,07/05/2019,26200,26200,26200.0,26200,-,18600
554,08/05/2019,26200,26200,26200.0,26200,-,18600
555,09/05/2019,26200,26200,26200.0,26200,-,18600
556,10/05/2019,26200,26200,26200.0,26200,-,18600
557,13/05/2019,26200,26200,26200.0,26200,-,18600
558,14/05/2019,26200,26200,26200.0,26200,-,18600
559,15/05/2019,26200,26200,26200.0,26200,-,18600
560,16/05/2019,26200,26200,26200.0,26200,-,18600
561,17/05/2019,26200,26200,26200.0,26200,-,18600
562,20/05/2019,26200,26200,26200.0,26200,-,18600
563,21/05/2019,26200,26200,26200.0,26200,-,18600
564,22/05/2019,26200,26200,26200.0,26200,-,18600
565,23/05/2019,26200,26200,26200.0,26200,-,18600
566,24/05/2019,26200,26200,26200.0,26200,-,18600
567,27/05/2019,26200,26200,26200.0,26200,-,18600
568,28/05/2019,26200,26200,26200.0,26200,-,18600
569,29/05/2019,26200,26200,26200.0,26200,-,18600
570,30/05/2019,26200,26200,26200.0,26200,-,18600
571,31/05/2019,26200,26200,26200.0,26200,-,18600
572,03/06/2019,26200,26200,26200.0,26200,-,18600
573,04/06/2019,26200,26200,26200.0,26200,-,18600
574,05/06/2019,26200,26200,26200.0,26200,-,18600
575,06/06/2019,26200,26200,26200.0,26200,-,18600
576,07/06/2019,26200,26200,26200.0,26200,-,18600
577,10/06/2019,26200,26200,26200.0,26200,-,18600
578,11/06/2019,26200,26200,26200.0,26200,-,18600
579,12/06/2019,26200,26200,26200.0,26200,-,18600
580,13/06/2019,26200,26200,26200.0,26200,-,18600
581,14/06/2019,26200,26200,26200.0,26200,-,18600
582,17/06/2019,26200,26200,26200.0,26200,-,18600
583,18/06/2019,26200,26200,26200.0,26200,-,18600
584,19/06/2019,26200,26200,26200.0,26200,-,18600
585,20/06/2019,26200,26200,26200.0,26200,-,18600
586,21/06/2019,26200,26200,26200.0,26200,-,18600
587,24/06/2019,26200,26200,26200.0,26200,-,18600
588,25/06/2019,26200,26200,26200.0,26200,-,18600
589,26/06/2019,26200,26200,26200.0,26200,-,18600
590,27/06/2019,26200,26200,26200.0,26200,-,18600
591,28/06/2019,26200,26200,26200.0,26200,-,18600
592,01/07/2019,26200,26200,26200.0,26200,-,18600
593,02/07/2019,26200,26200,26200.0,26200,-,18600
594,03/07/2019,26200,26200,26200.0,26200,-,18600
595,04/07/2019,26200,26200,26200.0,26200,-,18600
596,05/07/2019,26200,26200,26200.0,26200,-,18600
597,08/07/2019,26200,26200,26200.0,26200,-,18600
598,09/07/2019,26200,26200,26200.0,26200,-,18600
599,10/07/2019,26200,26200,26200.0,26200,-,18600
600,11/07/2019,26200,26200,26200.0,26200,-,18600
601,12/07/2019,26200,26200,26200.0,26200,-,18600
602,15/07/2019,24700,24700,24700.0,24700,-,19800
603,16/07/2019,24700,24700,24700.0,24700,-,19800
604,17/07/2019,24700,24700,24700.0,24700,-,19800
605,18/07/2019,24700,24700,24700.0,24700,-,19800
606,19/07/2019,24700,24700,24700.0,24700,-,19800
607,22/07/2019,24700,24700,24700.0,24700,-,19800
608,23/07/2019,24700,24700,24700.0,24700,-,19800
609,24/07/2019,24700,24700,24700.0,24700,-,19800
610,25/07/2019,24700,24700,24700.0,24700,-,19800
611,26/07/2019,24700,24700,24700.0,24700,-,19800
612,29/07/2019,24700,24700,24700.0,24700,-,19800
613,30/07/2019,24700,24700,24700.0,24700,-,19800
614,31/07/2019,24700,24700,24700.0,24700,-,19800
615,01/08/2019,24700,24700,24700.0,24700,-,19800
616,02/08/2019,24700,24700,24700.0,24700,-,19800
617,05/08/2019,24700,24700,24700.0,24700,-,19800
618,06/08/2019,24700,24700,24700.0,24700,-,19800
619,07/08/2019,24700,24700,24700.0,24700,-,19800
620,08/08/2019,24700,24700,24700.0,24700,-,19800
621,09/08/2019,24700,24700,24700.0,24700,-,19800
622,12/08/2019,24700,24700,24700.0,24700,-,19800
623,13/08/2019,24700,24700,24700.0,24700,-,19800
624,14/08/2019,24700,24700,24700.0,24700,-,19800
625,15/08/2019,24700,24700,24700.0,24700,-,19800
626,16/08/2019,24700,24700,24700.0,24700,-,19800
627,19/08/2019,24700,24700,24700.0,24700,-,19800
628,20/08/2019,24700,24700,24700.0,24700,-,19800
629,21/08/2019,24700,24700,24700.0,24700,-,19800
630,22/08/2019,24700,24700,24700.0,24700,-,19800
631,23/08/2019,24700,24700,24700.0,24700,-,19800
632,26/08/2019,24700,24700,24700.0,24700,-,19800
633,27/08/2019,24700,24700,24700.0,24700,-,19800
634,28/08/2019,24700,24700,24700.0,24700,-,19800
635,29/08/2019,24700,24700,24700.0,24700,-,19800
636,30/08/2019,24700,24700,24700.0,24700,-,19800
637,03/09/2019,24700,24700,24700.0,24700,-,19800
638,04/09/2019,24700,24700,24700.0,24700,-,19800
639,05/09/2019,24700,24700,24700.0,24700,-,18600
640,06/09/2019,24700,24700,24700.0,24700,-,18600
641,09/09/2019,24700,24700,24700.0,24700,-,18600
642,10/09/2019,24700,24700,24700.0,24700,-,18600
643,11/09/2019,24700,24700,24700.0,24700,-,18600
644,12/09/2019,24700,24700,24700.0,24700,-,18600
645,13/09/2019,24700,24700,24700.0,24700,-,18600
646,16/09/2019,24700,24700,24700.0,24700,-,18600
647,17/09/2019,24700,24700,24700.0,24700,-,18600
648,18/09/2019,24700,24700,24700.0,24700,-,18600
649,19/09/2019,24700,24700,24700.0,24700,-,18600
650,20/09/2019,24700,24700,24700.0,24700,-,18600
651,23/09/2019,24700,24700,24700.0,24700,-,18600
652,24/09/2019,24700,24700,24700.0,24700,-,18600
653,25/09/2019,24700,24700,24700.0,24700,-,18600
654,26/09/2019,24700,24700,24700.0,24700,-,18600
655,27/09/2019,24700,24700,24700.0,24700,-,18600
656,30/09/2019,24700,24700,24700.0,24700,-,18600
657,01/10/2019,24700,24700,24700.0,24700,-,18600
658,02/10/2019,24700,24700,24700.0,24700,-,18600
659,03/10/2019,24700,24700,24700.0,24700,-,18600
660,04/10/2019,24700,24700,24700.0,24700,-,18600
661,07/10/2019,24700,24700,24700.0,24700,-,18600
662,08/10/2019,24700,24700,24700.0,24700,-,18600
663,09/10/2019,24700,24700,24700.0,24700,-,18600
664,10/10/2019,24700,24700,24700.0,24700,-,18600
665,11/10/2019,24700,24700,24700.0,24700,-,18600
666,14/10/2019,24700,24700,24700.0,24700,-,18600
667,15/10/2019,24700,24700,24700.0,24700,-,18600
668,16/10/2019,24700,24700,24700.0,24700,-,18600
669,17/10/2019,24700,24700,24700.0,24700,-,18600
670,18/10/2019,24700,24700,24700.0,24700,-,18600
671,21/10/2019,24700,24700,24700.0,24700,-,18600
672,22/10/2019,24700,24700,24700.0,24700,-,18600
673,23/10/2019,24700,24700,24700.0,24700,-,18600
674,24/10/2019,24700,24700,24700.0,24700,-,18600
675,25/10/2019,24700,24700,24700.0,24700,-,18600
676,28/10/2019,24700,24700,24700.0,24700,-,18600
677,29/10/2019,24700,24700,24700.0,24700,-,18600
678,30/10/2019,24700,24700,24700.0,24700,-,18600
679,31/10/2019,24700,24700,24700.0,24700,-,18600
680,01/11/2019,24700,24700,24700.0,24700,-,18600
681,04/11/2019,24700,24700,24700.0,24700,-,18600
682,05/11/2019,24700,24700,24700.0,24700,-,18600
683,06/11/2019,24700,24700,24700.0,24700,-,18600
684,07/11/2019,24700,24700,24700.0,24700,-,18600
685,08/11/2019,24700,24700,24700.0,24700,-,18600
686,11/11/2019,24700,24700,24700.0,24700,-,18600
687,12/11/2019,24700,24700,24700.0,24700,-,18600
688,13/11/2019,24700,24700,24700.0,24700,-,18600
689,14/11/2019,24700,24700,24700.0,24700,-,18600
690,15/11/2019,24700,24700,24700.0,24700,-,18600
691,18/11/2019,24700,24700,24700.0,24700,-,18600
692,19/11/2019,24700,24700,24700.0,24700,-,18600
693,20/11/2019,24700,24700,24700.0,24700,-,18600
694,21/11/2019,24700,24700,24700.0,24700,-,18600
695,22/11/2019,24700,24700,24700.0,24700,-,18600
696,25/11/2019,24700,24700,24700.0,24700,-,18600
697,26/11/2019,24700,24700,24700.0,24700,-,18600
698,27/11/2019,24700,24700,24700.0,24700,-,18600
699,28/11/2019,24700,24700,24700.0,24700,-,18600
700,29/11/2019,24700,24700,24700.0,24700,-,18600
701,02/12/2019,24700,24700,24700.0,24700,-,18600
702,03/12/2019,24700,24700,24700.0,24700,-,18600
703,04/12/2019,24700,24700,24700.0,24700,-,18600
704,05/12/2019,24700,24700,24700.0,24700,-,18600
705,06/12/2019,24700,24700,24700.0,24700,-,18600
706,09/12/2019,24700,24700,24700.0,24700,-,18600
707,10/12/2019,24700,24700,24700.0,24700,-,18600
708,11/12/2019,24700,24700,24700.0,24700,-,18600
709,12/12/2019,24700,24700,24700.0,24700,-,18600
710,13/12/2019,24700,24700,24700.0,24700,-,18600
711,16/12/2019,24700,24700,24700.0,24700,-,18600
712,17/12/2019,24700,24700,24700.0,24700,-,18600
713,18/12/2019,24700,24700,24700.0,24700,-,18600
714,19/12/2019,24700,24700,24700.0,24700,-,18600
715,20/12/2019,24700,24700,24700.0,24700,-,18600
716,23/12/2019,24700,24700,24700.0,24700,-,18600
717,24/12/2019,24700,24700,24700.0,24700,-,18600
718,25/12/2019,24700,24700,24700.0,24700,-,18600
719,26/12/2019,24700,24700,24700.0,24700,-,18600
720,27/12/2019,24700,24700,24700.0,24700,-,18600
721,30/12/2019,24700,24700,24700.0,24700,-,18600
722,31/12/2019,24700,24700,24700.0,24700,-,18600
723,02/01/2020,24700,24700,24700.0,24700,-,18600
724,03/01/2020,24700,24700,24700.0,24700,-,18600
725,06/01/2020,24700,24700,24700.0,24700,-,18600
726,07/01/2020,24700,24700,24700.0,24700,-,18600
727,08/01/2020,24700,24700,24700.0,24700,-,18600
728,09/01/2020,24700,24700,24700.0,24700,-,18600
729,10/01/2020,24700,24700,24700.0,24700,-,18600
730,13/01/2020,24700,24700,24700.0,24700,-,18600
731,14/01/2020,24700,24700,24700.0,24700,-,18600
732,15/01/2020,24700,24700,24700.0,24700,-,18600
733,16/01/2020,24700,24700,24700.0,24700,-,18600
734,17/01/2020,24700,24700,24700.0,24700,-,18600
735,20/01/2020,24700,24700,24700.0,24700,-,18600
736,21/01/2020,24700,24700,24700.0,24700,-,18600
737,22/01/2020,24700,24700,24700.0,24700,-,18600
738,30/01/2020,24700,24700,24700.0,24700,-,18600
739,31/01/2020,24700,24700,24700.0,24700,-,18600
740,03/02/2020,24700,24700,24700.0,24700,-,18600
741,04/02/2020,24700,24700,24700.0,24700,-,18600
742,05/02/2020,24700,24700,24700.0,24700,-,18600
743,06/02/2020,24700,24700,24700.0,24700,-,18600
744,07/02/2020,24700,24700,24700.0,24700,-,18600
745,10/02/2020,24700,24700,24700.0,24700,-,18600
746,11/02/2020,24700,24700,24700.0,24700,-,18600
747,12/02/2020,24700,24700,24700.0,24700,-,18600
748,13/02/2020,24700,24700,24700.0,24700,-,18600
749,14/02/2020,24700,24700,24700.0,24700,-,18600
750,17/02/2020,24700,24700,24700.0,24700,-,18600
751,18/02/2020,24700,24700,24700.0,24700,-,18600
752,19/02/2020,24700,24700,24700.0,24700,-,18600
753,20/02/2020,24700,24700,24700.0,24700,-,18600
754,21/02/2020,24700,24700,24700.0,24700,-,18600
755,24/02/2020,24700,24700,24700.0,24700,-,18600
756,25/02/2020,24700,24700,24700.0,24700,-,18600
757,26/02/2020,24700,24700,24700.0,24700,-,18600
758,27/02/2020,24700,24700,24700.0,24700,-,18600
759,28/02/2020,24700,24700,24700.0,24700,-,18600
760,02/03/2020,24700,24700,24700.0,24700,-,18600
761,03/03/2020,24700,24700,24700.0,24700,-,18600
762,04/03/2020,24700,24700,24700.0,24700,-,18600
763,05/03/2020,24700,24700,24700.0,24700,-,18600
764,06/03/2020,24700,24700,24700.0,24700,-,18600
765,09/03/2020,24700,24700,24700.0,24700,-,18600
766,10/03/2020,24700,24700,24700.0,24700,-,18600
767,11/03/2020,24700,24700,24700.0,24700,-,18600
768,12/03/2020,24700,24700,24700.0,24700,-,18600
769,13/03/2020,24700,24700,24700.0,24700,-,18600
770,16/03/2020,24700,24700,24700.0,24700,-,18600
771,17/03/2020,24700,24700,24700.0,24700,-,18600
772,18/03/2020,24700,24700,24700.0,24700,-,18600
773,19/03/2020,24700,24700,24700.0,24700,-,18600
774,20/03/2020,24700,24700,24700.0,24700,-,18600
775,23/03/2020,24700,24700,24700.0,24700,-,18600
776,24/03/2020,24700,24700,24700.0,24700,-,18600
777,25/03/2020,24700,24700,24700.0,24700,-,18600
778,26/03/2020,24700,24700,24700.0,24700,-,18600
779,27/03/2020,24700,24700,24700.0,24700,-,18600
780,30/03/2020,24700,24700,24700.0,24700,-,18600
781,31/03/2020,24700,24700,24700.0,24700,-,18600
782,01/04/2020,24700,24700,24700.0,24700,-,18600
783,03/04/2020,24700,24700,24700.0,24700,-,18600
784,06/04/2020,24700,24700,24700.0,24700,-,18600
785,07/04/2020,24700,24700,24700.0,24700,-,18600
786,08/04/2020,24700,24700,24700.0,24700,-,18600
787,09/04/2020,24700,24700,24700.0,24700,-,18600
788,10/04/2020,24700,24700,24700.0,24700,-,18600
789,13/04/2020,24700,24700,24700.0,24700,-,18600
790,14/04/2020,24700,24700,24700.0,24700,-,18600
791,15/04/2020,24700,24700,24700.0,24700,-,18600
792,16/04/2020,24700,24700,24700.0,24700,-,19800
793,17/04/2020,24700,24700,24700.0,24700,-,18600
794,20/04/2020,24700,24700,24700.0,24700,-,18600
795,21/04/2020,24700,24700,24700.0,24700,-,18600
796,22/04/2020,24700,24700,24700.0,24700,-,18600
797,23/04/2020,24700,24700,24700.0,24700,-,18600
798,24/04/2020,24700,24700,24700.0,24700,-,18600
799,27/04/2020,24700,24700,24700.0,24700,-,18600
800,28/04/2020,24700,24700,24700.0,24700,-,18600
801,29/04/2020,24700,24700,24700.0,24700,-,18600
802,04/05/2020,24700,24700,24700.0,24700,-,18600
803,05/05/2020,24700,24700,24700.0,24700,-,18600
804,06/05/2020,24700,24700,24700.0,24700,-,18600
805,07/05/2020,24700,24700,24700.0,24700,-,18600
806,08/05/2020,24700,24700,24700.0,24700,-,18600
807,11/05/2020,24700,24700,24700.0,24700,-,18600
808,12/05/2020,24700,24700,24700.0,24700,-,18600
809,13/05/2020,24700,24700,24700.0,24700,-,18600
810,14/05/2020,24700,24700,24700.0,24700,-,18600
811,15/05/2020,24700,24700,24700.0,24700,-,18600
812,18/05/2020,24700,24700,24700.0,24700,-,18600
813,19/05/2020,24700,24700,24700.0,24700,-,18600
814,20/05/2020,24700,24700,24700.0,24700,-,18600
815,21/05/2020,24700,24700,24700.0,24700,-,18600
816,22/05/2020,24700,24700,24700.0,24700,-,18600
817,25/05/2020,24700,24700,24700.0,24700,-,18600
818,26/05/2020,24700,24700,24700.0,24700,-,18600
819,27/05/2020,24700,24700,24700.0,24700,-,18600
820,28/05/2020,24700,24700,24700.0,24700,-,18600
821,29/05/2020,20000,20000,20000.0,20000,1600,15100
822,01/06/2020,20000,20000,20000.0,20000,70,15100
823,02/06/2020,20000,20000,20000.0,20000,-,15100
824,03/06/2020,20000,20000,20000.0,20000,-,15100
825,04/06/2020,20000,20000,20000.0,20000,-,15100
826,05/06/2020,20000,20000,20000.0,20000,-,15100
827,08/06/2020,20000,20000,20000.0,20000,-,15100
828,09/06/2020,20000,20000,20000.0,20000,-,15100
829,10/06/2020,20000,20000,20000.0,20000,-,15100
830,11/06/2020,20000,20000,20000.0,20000,-,15100
831,12/06/2020,20000,20000,20000.0,20000,-,15100
832,15/06/2020,20000,20000,20000.0,20000,-,15100
833,16/06/2020,20000,20000,20000.0,20000,-,15100
834,17/06/2020,20000,20000,20000.0,20000,-,15100
835,18/06/2020,20000,20000,20000.0,20000,-,15100
836,19/06/2020,20000,20000,20000.0,20000,-,15100
837,22/06/2020,20000,20000,20000.0,20000,-,15100
838,23/06/2020,20000,20000,20000.0,20000,-,15100
839,24/06/2020,20000,20000,20000.0,20000,-,15100
840,25/06/2020,20000,20000,20000.0,20000,-,15100
841,26/06/2020,20000,20000,20000.0,20000,-,15100
842,29/06/2020,20000,20000,20000.0,20000,-,15100
843,30/06/2020,20000,20000,20000.0,20000,-,15100
844,01/07/2020,20000,20000,20000.0,20000,-,15100
845,02/07/2020,20000,20000,20000.0,20000,-,15100
846,03/07/2020,20000,20000,20000.0,20000,-,15100
847,06/07/2020,20000,20000,20000.0,20000,-,15100
848,07/07/2020,20000,20000,20000.0,20000,-,15100
849,08/07/2020,20000,20000,20000.0,20000,-,15100
850,09/07/2020,20000,20000,20000.0,20000,-,15100
851,10/07/2020,20000,20000,20000.0,20000,-,15100
852,13/07/2020,20000,20000,20000.0,20000,-,15100
853,14/07/2020,18500,18500,18500.0,18500,-,15100
854,15/07/2020,18500,18500,18500.0,18500,-,15100
855,16/07/2020,18500,18500,18500.0,18500,-,15100
856,17/07/2020,18500,18500,18500.0,18500,-,15100
857,20/07/2020,18500,18500,18500.0,18500,-,15100
858,21/07/2020,18500,18500,18500.0,18500,-,15100
859,22/07/2020,18500,18500,18500.0,18500,-,15100
860,23/07/2020,18500,18500,18500.0,18500,-,15100
861,24/07/2020,18500,18500,18500.0,18500,-,15100
862,27/07/2020,18500,18500,18500.0,18500,-,15100
863,28/07/2020,18500,18500,18500.0,18500,-,15100
864,29/07/2020,18500,18500,18500.0,18500,-,15100
865,30/07/2020,18500,18500,18500.0,18500,-,15100
866,31/07/2020,18500,18500,18500.0,18500,-,15100
867,03/08/2020,18500,18500,18500.0,18500,-,15100
868,04/08/2020,18500,18500,18500.0,18500,-,15100
869,05/08/2020,18500,18500,18500.0,18500,-,15100
870,06/08/2020,18500,18500,18500.0,18500,-,15100
871,07/08/2020,18500,18500,18500.0,18500,-,15100
872,10/08/2020,18500,18500,18500.0,18500,-,15100
873,11/08/2020,18500,18500,18500.0,18500,-,15100
874,12/08/2020,18500,18500,18500.0,18500,-,15100
875,13/08/2020,18500,18500,18500.0,18500,-,15100
876,14/08/2020,18500,18500,18500.0,18500,-,15100
877,17/08/2020,18500,18500,18500.0,18500,-,15100
878,18/08/2020,18500,18500,18500.0,18500,-,15100
879,19/08/2020,18500,18500,18500.0,18500,-,15100
880,20/08/2020,18500,18500,18500.0,18500,-,15100
881,21/08/2020,18500,18500,18500.0,18500,-,15100
882,24/08/2020,18500,18500,18500.0,18500,-,15100
883,25/08/2020,18500,18500,18500.0,18500,-,15100
884,26/08/2020,18500,18500,18500.0,18500,-,15100
885,27/08/2020,18500,18500,18500.0,18500,-,15100
886,28/08/2020,18500,18500,18500.0,18500,-,15100
887,31/08/2020,18500,18500,18500.0,18500,-,15100
888,01/09/2020,18500,18500,18500.0,18500,-,15100
889,03/09/2020,18500,18500,18500.0,18500,-,15100
890,04/09/2020,18500,18500,18500.0,18500,-,15100
891,07/09/2020,18500,18500,18500.0,18500,-,15100
892,08/09/2020,18500,18500,18500.0,18500,-,15100
893,09/09/2020,18500,18500,18500.0,18500,-,15100
894,10/09/2020,18500,18500,18500.0,18500,-,15100
895,11/09/2020,18500,18500,18500.0,18500,-,15100
896,14/09/2020,18500,18500,18500.0,18500,-,15100
897,15/09/2020,18500,18500,18500.0,18500,-,15100
898,16/09/2020,18500,18500,18500.0,18500,-,15100
899,17/09/2020,18500,18500,18500.0,18500,-,15100
900,18/09/2020,18500,18500,18500.0,18500,-,15100
901,21/09/2020,18500,18500,18500.0,18500,-,15100
902,22/09/2020,18500,18500,18500.0,18500,-,15100
903,23/09/2020,18500,18500,18500.0,18500,-,15100
904,24/09/2020,18500,18500,18500.0,18500,-,15100
905,25/09/2020,18500,18500,18500.0,18500,-,15100
906,28/09/2020,18500,18500,18500.0,18500,-,15100
907,29/09/2020,18500,18500,18500.0,18500,-,15100
908,30/09/2020,18500,18500,18500.0,18500,-,15100
909,01/10/2020,18500,18500,18500.0,18500,-,15100
910,02/10/2020,18500,18500,18500.0,18500,-,15100
911,05/10/2020,18500,18500,18500.0,18500,-,15100
912,06/10/2020,18500,18500,18500.0,18500,-,15100
913,07/10/2020,18500,18500,18500.0,18500,-,15100
914,08/10/2020,18500,18500,18500.0,18500,-,15100
915,09/10/2020,18500,18500,18500.0,18500,-,15100
916,12/10/2020,18500,18500,18500.0,18500,-,15100
917,13/10/2020,18500,18500,18500.0,18500,-,15100
918,14/10/2020,18500,18500,18500.0,18500,-,15100
919,15/10/2020,18500,18500,18500.0,18500,-,15100
920,16/10/2020,18500,18500,18500.0,18500,-,15100
921,19/10/2020,18500,18500,18500.0,18500,-,15100
922,20/10/2020,18500,18500,18500.0,18500,-,15100
923,21/10/2020,18500,18500,18500.0,18500,-,15100
924,22/10/2020,18500,18500,18500.0,18500,-,15100
925,23/10/2020,18500,18500,18500.0,18500,-,15100
926,26/10/2020,18500,18500,18500.0,18500,-,15100
927,27/10/2020,18500,18500,18500.0,18500,-,15100
928,28/10/2020,18500,18500,18500.0,18500,-,15100
929,29/10/2020,18500,18500,18500.0,18500,-,15100
930,30/10/2020,18500,18500,18500.0,18500,-,15100
931,02/11/2020,18500,18500,18500.0,18500,-,15100
932,03/11/2020,18500,18500,18500.0,18500,-,15100
933,04/11/2020,18500,18500,18500.0,18500,-,15100
934,05/11/2020,18500,18500,18500.0,18500,-,15100
935,06/11/2020,18500,18500,18500.0,18500,-,15100
936,09/11/2020,18500,18500,18500.0,18500,-,15100
937,10/11/2020,18500,18500,18500.0,18500,-,15100
938,11/11/2020,18500,18500,18500.0,18500,-,15100
939,12/11/2020,18500,18500,18500.0,18500,-,15100
940,13/11/2020,18500,18500,18500.0,18500,-,15100
941,16/11/2020,18500,18500,18500.0,18500,-,15100
942,17/11/2020,18500,18500,18500.0,18500,-,15100
943,18/11/2020,18500,18500,18500.0,18500,-,15100
944,19/11/2020,18500,18500,18500.0,18500,-,15100
945,20/11/2020,18500,18500,18500.0,18500,-,15100
946,23/11/2020,18500,18500,-,18500,-,15100
947,24/11/2020,18500,18500,18500.0,18500,-,15100
948,25/11/2020,18500,18500,18500.0,18500,-,15100
949,26/11/2020,18500,18500,18500.0,18500,-,15100
950,27/11/2020,18500,18500,18500.0,18500,-,15100
951,30/11/2020,18500,18500,18500.0,18500,-,15100
952,01/12/2020,18500,18500,18500.0,18500,-,15100
953,02/12/2020,18500,18500,18500.0,18500,-,15100
954,03/12/2020,18500,18500,18500.0,18500,-,15100
955,04/12/2020,18500,18500,18500.0,18500,-,15100
956,07/12/2020,18500,18500,18500.0,18500,-,15100
957,08/12/2020,18500,18500,18500.0,18500,-,15100
958,09/12/2020,18500,18500,18500.0,18500,-,15100
959,10/12/2020,18500,18500,18500.0,18500,-,15100
960,11/12/2020,18500,18500,18500.0,18500,-,15100
961,14/12/2020,18500,18500,18500.0,18500,-,15100
962,15/12/2020,18500,18500,18500.0,18500,-,15100
963,16/12/2020,18500,18500,18500.0,18500,-,15100
964,17/12/2020,18500,18500,18500.0,18500,-,15100
965,18/12/2020,18500,18500,18500.0,18500,-,15100
966,21/12/2020,18500,18500,18500.0,18500,-,15100
967,22/12/2020,18500,18500,18500.0,18500,-,15100
968,23/12/2020,18500,18500,18500.0,18500,-,15100
969,24/12/2020,18500,18500,18500.0,18500,-,15100
970,25/12/2020,18500,18500,18500.0,18500,-,15100
971,28/12/2020,18500,18500,18500.0,18500,-,15100
972,29/12/2020,18500,18500,18500.0,18500,-,15100
973,30/12/2020,18500,18500,18500.0,18500,-,15100
974,31/12/2020,18500,18500,18500.0,18500,-,15100
975,04/01/2021,18500,18500,18500.0,18500,-,15100
976,05/01/2021,18500,18500,18500.0,18500,-,15100
977,06/01/2021,18500,18500,18500.0,18500,-,15100
978,07/01/2021,18500,18500,18500.0,18500,-,15100
979,08/01/2021,18500,18500,18500.0,18500,-,15100
980,11/01/2021,18500,18500,18500.0,18500,-,15100
981,12/01/2021,18500,18500,18500.0,18500,-,15100
982,13/01/2021,18500,18500,18500.0,18500,-,15100
983,14/01/2021,18500,18500,18500.0,18500,-,15100
984,15/01/2021,18500,18500,18500.0,18500,-,15100
985,18/01/2021,18500,18500,18500.0,18500,-,15100
986,19/01/2021,18500,18500,18500.0,18500,-,15100
987,20/01/2021,18500,18500,18500.0,18500,-,15100
988,21/01/2021,18500,18500,18500.0,18500,-,15100
989,22/01/2021,18500,18500,18500.0,18500,-,15100
990,25/01/2021,18500,18500,18500.0,18500,-,15100
991,26/01/2021,18500,18500,18500.0,18500,-,15100
992,27/01/2021,18500,18500,18500.0,18500,-,15100
993,28/01/2021,18500,18500,18500.0,18500,-,15100
994,29/01/2021,18500,18500,18500.0,18500,-,15100
995,01/02/2021,18500,18500,18500.0,18500,-,15100
996,02/02/2021,18500,18500,18500.0,18500,-,15100
997,03/02/2021,18500,18500,18500.0,18500,-,15100
998,04/02/2021,18500,18500,18500.0,18500,-,15100
999,05/02/2021,18500,18500,18500.0,18500,-,15100
1000,08/02/2021,18500,18500,18500.0,18500,-,15100
1001,09/02/2021,18500,18500,18500.0,18500,-,15100
1002,17/02/2021,18500,18500,18500.0,18500,-,15100
1003,18/02/2021,18500,18500,18500.0,18500,-,15100
1004,19/02/2021,18500,18500,18500.0,18500,-,15100
1005,22/02/2021,18500,18500,18500.0,18500,-,15100
1006,23/02/2021,18500,18500,18500.0,18500,-,15100
1007,24/02/2021,18500,18500,18500.0,18500,-,15100
1008,25/02/2021,18500,18500,18500.0,18500,-,15100
1009,26/02/2021,18500,18500,18500.0,18500,-,15100
1010,01/03/2021,18500,18500,18500.0,18500,-,15100
1011,02/03/2021,18500,18500,18500.0,18500,-,15100
1012,03/03/2021,18500,18500,18500.0,18500,-,15100
1013,04/03/2021,18500,18500,18500.0,18500,-,15100
1014,05/03/2021,18500,18500,18500.0,18500,-,15100
1015,08/03/2021,18500,18500,18500.0,18500,-,15100
1016,09/03/2021,18500,18500,18500.0,18500,-,15100
1017,10/03/2021,18500,18500,18500.0,18500,-,15100
1018,11/03/2021,18500,18500,18500.0,18500,-,15100
1019,12/03/2021,18500,18500,18500.0,18500,-,15100
1020,15/03/2021,18500,18500,18500.0,18500,-,15100
1021,16/03/2021,18500,18500,18500.0,18500,-,15100
1022,17/03/2021,18500,18500,18500.0,18500,-,15100
1023,18/03/2021,18500,18500,18500.0,18500,-,15100
1024,19/03/2021,18500,18500,18500.0,18500,-,15100
1025,22/03/2021,18500,18500,18500.0,18500,-,15100
1026,23/03/2021,18500,18500,18500.0,18500,-,15100
1027,24/03/2021,18500,18500,18500.0,18500,-,15100
1028,25/03/2021,18500,18500,18500.0,18500,-,15100
1029,26/03/2021,18500,18500,18500.0,18500,-,15100
1030,29/03/2021,18500,18500,18500.0,18500,-,15100
1031,30/03/2021,18500,18500,18500.0,18500,-,15100
1032,31/03/2021,18500,18500,18500.0,18500,-,15100
1033,01/04/2021,18500,18500,18500.0,18500,-,15100
1034,02/04/2021,18500,18500,18500.0,18500,-,15100
1035,05/04/2021,18500,18500,18500.0,18500,-,15100
1036,06/04/2021,18500,18500,18500.0,18500,-,15100
1037,07/04/2021,18500,18500,18500.0,18500,-,15100
1038,08/04/2021,18500,18500,18500.0,18500,-,15100
1039,09/04/2021,18500,18500,18500.0,18500,-,15100
1040,12/04/2021,18500,18500,18500.0,18500,-,15100
1041,13/04/2021,18500,18500,18500.0,18500,-,15100
1042,14/04/2021,18500,18500,18500.0,18500,-,15100
1043,15/04/2021,18500,18500,18500.0,18500,-,15100
1044,16/04/2021,18500,18500,18500.0,18500,-,15100
1045,19/04/2021,18500,18500,18500.0,18500,-,15100
1046,20/04/2021,18500,18500,18500.0,18500,-,15100
1047,22/04/2021,18500,18500,18500.0,18500,-,15100
1048,23/04/2021,18500,18500,18500.0,18500,-,15100
1049,26/04/2021,18500,18500,18500.0,18500,-,15100
1050,27/04/2021,18500,18500,18500.0,18500,-,15100
1051,28/04/2021,18500,18500,18500.0,18500,-,15100
1052,29/04/2021,18500,18500,18500.0,18500,-,15100
1053,04/05/2021,18500,18500,18500.0,18500,-,15100
1054,05/05/2021,18500,18500,18500.0,18500,-,15100
1055,06/05/2021,18500,18500,18500.0,18500,-,15100
1056,07/05/2021,11100,11100,11100.0,11100,7700,9100
1057,10/05/2021,11100,11100,11100.0,11100,35,9100
1058,11/05/2021,11100,11100,11100.0,11100,-,9100
1059,12/05/2021,11100,11100,11100.0,11100,-,9100
1060,13/05/2021,11100,11100,11100.0,11100,-,9100
1061,14/05/2021,11100,11100,11100.0,11100,-,9100
1062,17/05/2021,11100,11100,11100.0,11100,-,9100
1063,18/05/2021,11100,11100,11100.0,11100,-,9100
1064,19/05/2021,11100,11100,11100.0,11100,-,9100
1065,20/05/2021,11100,11100,11100.0,11100,-,9100
1066,21/05/2021,11100,11100,11100.0,11100,-,9100
1067,24/05/2021,11100,11100,11100.0,11100,-,9100
1068,25/05/2021,11100,11100,11100.0,11100,-,9100
1069,26/05/2021,11100,11100,11100.0,11100,-,9100
1070,27/05/2021,11100,11100,11100.0,11100,-,9100
1071,28/05/2021,11100,11100,11100.0,11100,-,9100
1072,31/05/2021,11100,11100,11100.0,11100,-,9100
1073,01/06/2021,11100,11100,11100.0,11100,-,9100
1074,02/06/2021,11100,11100,11100.0,11100,-,9100
1075,03/06/2021,11100,11100,11100.0,11100,-,9100
1076,04/06/2021,11100,11100,11100.0,11100,-,9100
1077,07/06/2021,11100,11100,11100.0,11100,-,9100
1078,08/06/2021,11100,11100,11100.0,11100,-,9100
1079,09/06/2021,11100,11100,11100.0,11100,-,9100
1080,10/06/2021,11100,11100,11100.0,11100,-,9100
1081,11/06/2021,11100,11100,11100.0,11100,-,9100
1082,14/06/2021,11100,11100,11100.0,11100,-,9100
1083,15/06/2021,11100,11100,11100.0,11100,-,9100
1084,16/06/2021,11100,11100,11100.0,11100,-,9100
1085,17/06/2021,11100,11100,11100.0,11100,-,9100
1086,18/06/2021,11100,11100,11100.0,11100,-,9100
1087,21/06/2021,15500,15500,15500.0,15500,3600,12600
1088,22/06/2021,15500,15500,15500.0,15500,-,12600
1089,23/06/2021,15500,15500,15500.0,15500,31,12600
1090,24/06/2021,15500,15500,15500.0,15500,-,12600
1091,25/06/2021,15500,15500,15500.0,15500,-,12600
1092,28/06/2021,15500,15500,15500.0,15500,-,12600
1093,29/06/2021,15500,15500,15500.0,15500,-,12600
1094,30/06/2021,15500,15500,15500.0,15500,-,12600
1095,01/07/2021,15500,15500,15500.0,15500,-,12600
1096,02/07/2021,15500,15500,15500.0,15500,-,12600
1097,05/07/2021,15500,15500,15500.0,15500,3000,12600
1098,06/07/2021,15500,15500,15500.0,15500,1000,12600
1099,07/07/2021,15500,15500,15500.0,15500,-,12600
1100,08/07/2021,15500,15500,15500.0,15500,-,12600
1101,09/07/2021,15500,15500,15500.0,15500,-,12600
1102,12/07/2021,15500,15500,15500.0,15500,-,12600
1103,13/07/2021,15500,15500,15500.0,15500,-,12600
1104,14/07/2021,15500,15500,15500.0,15500,-,12600
1105,15/07/2021,15500,15500,15500.0,15500,-,12600
1106,16/07/2021,15500,15500,15500.0,15500,-,12600
1107,19/07/2021,15500,15500,15500.0,15500,-,12600
1108,20/07/2021,15500,15500,15500.0,15500,-,12600
1109,21/07/2021,15500,15500,15500.0,15500,-,12600
1110,22/07/2021,15500,15500,15500.0,15500,-,12600
1111,23/07/2021,15500,15500,15500.0,15500,-,12600
1112,26/07/2021,15500,15500,15500.0,15500,-,12600
1113,27/07/2021,15500,15500,15500.0,15500,-,12600
1114,28/07/2021,15500,15500,15500.0,15500,-,12600
1115,29/07/2021,15500,15500,15500.0,15500,-,12600
1116,30/07/2021,15500,15500,15500.0,15500,-,12600
1117,02/08/2021,15500,15500,15500.0,15500,-,12600
1118,03/08/2021,15500,15500,15500.0,15500,-,12600
1119,04/08/2021,15500,15500,15500.0,15500,-,12600
1120,05/08/2021,15500,15500,15500.0,15500,-,12600
1121,06/08/2021,15500,15500,15500.0,15500,-,12600
1122,09/08/2021,15500,15500,15500.0,15500,-,12600
1123,10/08/2021,15500,15500,15500.0,15500,-,12600
1124,11/08/2021,15500,15500,15500.0,15500,-,12600
1125,12/08/2021,15500,15500,15500.0,15500,-,12600
1126,13/08/2021,15500,15500,15500.0,15500,-,12600
1127,16/08/2021,15500,15500,15500.0,15500,-,12600
1128,17/08/2021,15500,15500,15500.0,15500,-,12600
1129,18/08/2021,15500,15500,15500.0,15500,-,12600
1130,19/08/2021,15500,15500,15500.0,15500,-,12600
1131,20/08/2021,15500,15500,15500.0,15500,-,12600
1132,23/08/2021,15500,15500,15500.0,15500,-,12600
1133,24/08/2021,15500,15500,15500.0,15500,-,12600
1134,25/08/2021,15500,15500,15500.0,15500,-,12600
1135,26/08/2021,15500,15500,15500.0,15500,-,12600
1136,27/08/2021,15500,15500,15500.0,15500,-,12600
1137,30/08/2021,15500,15500,15500.0,15500,-,12600
1138,31/08/2021,15500,15500,15500.0,15500,-,12600
1139,01/09/2021,15500,15500,15500.0,15500,-,12600
1140,06/09/2021,15500,15500,15500.0,15500,-,12600
1141,07/09/2021,15500,15500,15500.0,15500,-,12600
1142,08/09/2021,15500,15500,15500.0,15500,-,12600
1143,09/09/2021,15500,15500,15500.0,15500,-,12600
1144,10/09/2021,15500,15500,15500.0,15500,-,12600
1145,13/09/2021,15500,15500,15500.0,15500,-,12600
1146,14/09/2021,15500,15500,15500.0,15500,-,12600
1147,15/09/2021,15500,15500,15500.0,15500,-,12600
1148,16/09/2021,15500,15500,15500.0,15500,-,12600
1149,17/09/2021,15500,15500,15500.0,15500,-,12600
1150,20/09/2021,15500,15500,15500.0,15500,-,12600
1151,21/09/2021,15500,15500,15500.0,15500,-,12600
1152,22/09/2021,15500,15500,15500.0,15500,-,12600
1153,23/09/2021,15500,15500,15500.0,15500,-,12600
1154,24/09/2021,15500,15500,15500.0,15500,-,12600
1155,27/09/2021,15500,15500,15500.0,15500,-,12600
1156,28/09/2021,15500,15500,15500.0,15500,-,12600
1157,29/09/2021,15500,15500,15500.0,15500,-,12600
1158,30/09/2021,15500,15500,15500.0,15500,-,12600
1159,01/10/2021,15500,15500,15500.0,15500,-,12600
1160,04/10/2021,15500,15500,15500.0,15500,-,12600
1161,05/10/2021,15500,15500,15500.0,15500,-,12600
1162,06/10/2021,15500,15500,15500.0,15500,-,12600
1163,07/10/2021,15500,15500,15500.0,15500,-,12600
1164,08/10/2021,15500,15500,15500.0,15500,-,12600
1165,11/10/2021,15500,15500,15500.0,15500,-,12600
1166,12/10/2021,15500,15500,15500.0,15500,-,12600
1167,13/10/2021,15500,15500,15500.0,15500,-,12600
1168,14/10/2021,15500,15500,15500.0,15500,-,12600
1169,15/10/2021,15500,15500,15500.0,15500,-,12600
1170,18/10/2021,15500,15500,15500.0,15500,-,12600
1171,19/10/2021,15500,15500,15500.0,15500,-,12600
1172,20/10/2021,15500,15500,15500.0,15500,-,12600
1173,21/10/2021,15500,15500,15500.0,15500,-,12600
1174,22/10/2021,15500,15500,15500.0,15500,-,12600
1175,25/10/2021,15500,15500,15500.0,15500,-,12600
1176,26/10/2021,15500,15500,15500.0,15500,-,12600
1177,27/10/2021,15500,15500,15500.0,15500,-,12600
1178,28/10/2021,15500,15500,15500.0,15500,-,12600
1179,29/10/2021,15500,15500,15500.0,15500,-,12600
1180,01/11/2021,15500,15500,15500.0,15500,-,12600
1181,02/11/2021,15500,15500,15500.0,15500,-,12600
1182,03/11/2021,15500,15500,15500.0,15500,-,12600
1183,04/11/2021,15500,15500,15500.0,15500,-,12600
1184,05/11/2021,15500,15500,15500.0,15500,-,12600
1185,08/11/2021,15500,15500,15500.0,15500,-,12600
1186,09/11/2021,15500,15500,15500.0,15500,-,12600
1187,10/11/2021,15500,15500,15500.0,15500,-,12600
1188,11/11/2021,15500,15500,15500.0,15500,-,12600
1189,12/11/2021,15500,15500,15500.0,15500,-,12600
1190,15/11/2021,15500,15500,15500.0,15500,-,12600
1191,16/11/2021,15500,15500,15500.0,15500,-,12600
1192,17/11/2021,15500,15500,15500.0,15500,-,12600
1193,18/11/2021,15500,15500,15500.0,15500,-,12600
1194,19/11/2021,15500,15500,15500.0,15500,-,12600
1195,22/11/2021,14000,14000,14000.0,14000,-,12600
1196,23/11/2021,14000,14000,14000.0,14000,-,12600
1197,24/11/2021,14000,14000,14000.0,14000,-,12600
1198,25/11/2021,14000,14000,14000.0,14000,-,12600
1199,26/11/2021,14000,14000,14000.0,14000,-,12600
1200,29/11/2021,14000,14000,14000.0,14000,-,14000
1201,30/11/2021,14000,14000,14000.0,14000,-,14000
1202,01/12/2021,14000,14000,14000.0,14000,-,14000
1203,02/12/2021,14000,14000,14000.0,14000,-,14000
1204,03/12/2021,14000,14000,14000.0,14000,-,14000
1205,06/12/2021,14000,14000,14000.0,14000,-,14000
1206,07/12/2021,14000,14000,14000.0,14000,-,14000
1207,08/12/2021,14000,14000,14000.0,14000,-,14000
1208,09/12/2021,14000,14000,14000.0,14000,-,14000
1209,10/12/2021,14000,14000,14000.0,14000,-,14000
1210,13/12/2021,14000,14000,14000.0,14000,-,14000
1211,14/12/2021,14000,14000,14000.0,14000,-,14000
1212,15/12/2021,14000,14000,14000.0,14000,-,14000
1213,16/12/2021,14000,14000,14000.0,14000,-,14000
1214,17/12/2021,14000,14000,14000.0,14000,-,14000
1215,20/12/2021,14000,14000,14000.0,14000,-,14000
1216,21/12/2021,14000,14000,14000.0,14000,-,14000
1217,22/12/2021,14000,14000,14000.0,14000,-,14000
1218,23/12/2021,14000,14000,14000.0,14000,-,14000
1219,24/12/2021,14000,14000,14000.0,14000,-,14000
1220,27/12/2021,14000,14000,14000.0,14000,-,14000
1221,28/12/2021,14000,14000,14000.0,14000,-,14000
1222,29/12/2021,14000,14000,14000.0,14000,-,14000
1223,30/12/2021,14000,14000,14000.0,14000,-,14000
1224,31/12/2021,14000,14000,14000.0,14000,-,14000
1225,04/01/2022,14000,14000,14000.0,14000,-,14000
1226,05/01/2022,14000,14000,14000.0,14000,-,14000
